# Temperature Energy EnergyDensity Magnetization MagnetizationDensity
10.000000 -204420.000000 -0.204420 -21630.000000 -0.021630
9.760905 -208696.000000 -0.208696 776.000000 0.000776
9.527526 -217028.000000 -0.217028 -1396.000000 -0.001396
9.299727 -218692.000000 -0.218692 -966.000000 -0.000966
9.077375 -224176.000000 -0.224176 -1230.000000 -0.001230
8.860339 -230900.000000 -0.230900 108.000000 0.000108
8.648493 -239280.000000 -0.239280 124.000000 0.000124
8.441711 -241484.000000 -0.241484 1278.000000 0.001278
8.239874 -248680.000000 -0.248680 -950.000000 -0.000950
8.042863 -254656.000000 -0.254656 -730.000000 -0.000730
7.850562 -263700.000000 -0.263700 798.000000 0.000798
7.662858 -269164.000000 -0.269164 550.000000 0.000550
7.479643 -274400.000000 -0.274400 1196.000000 0.001196
7.300808 -284052.000000 -0.284052 -742.000000 -0.000742
7.126250 -291232.000000 -0.291232 -874.000000 -0.000874
6.955864 -297896.000000 -0.297896 1554.000000 0.001554
6.789553 -305392.000000 -0.305392 -1626.000000 -0.001626
6.627218 -315352.000000 -0.315352 1164.000000 0.001164
6.468764 -320300.000000 -0.320300 -246.000000 -0.000246
6.314099 -332692.000000 -0.332692 1548.000000 0.001548
6.163132 -338616.000000 -0.338616 2.000000 0.000002
6.015775 -348488.000000 -0.348488 -1734.000000 -0.001734
5.871940 -361112.000000 -0.361112 338.000000 0.000338
5.731545 -369176.000000 -0.369176 1106.000000 0.001106
5.594506 -380772.000000 -0.380772 -2084.000000 -0.002084
5.460744 -390000.000000 -0.390000 -2686.000000 -0.002686
5.330181 -397764.000000 -0.397764 1650.000000 0.001650
5.202738 -409340.000000 -0.409340 -182.000000 -0.000182
5.078343 -422352.000000 -0.422352 210.000000 0.000210
4.956923 -433256.000000 -0.433256 -2842.000000 -0.002842
4.838405 -444272.000000 -0.444272 -58.000000 -0.000058
4.722721 -459272.000000 -0.459272 -2824.000000 -0.002824
4.609803 -470204.000000 -0.470204 -2502.000000 -0.002502
4.499584 -483716.000000 -0.483716 -3050.000000 -0.003050
4.392002 -496680.000000 -0.496680 -186.000000 -0.000186
4.286991 -511208.000000 -0.511208 -82.000000 -0.000082
4.184491 -523472.000000 -0.523472 1774.000000 0.001774
4.084442 -539360.000000 -0.539360 -850.000000 -0.000850
3.986785 -559856.000000 -0.559856 1292.000000 0.001292
3.891463 -575768.000000 -0.575768 -1138.000000 -0.001138
3.798419 -594396.000000 -0.594396 918.000000 0.000918
3.707601 -610504.000000 -0.610504 -236.000000 -0.000236
3.618954 -632704.000000 -0.632704 1726.000000 0.001726
3.532427 -653036.000000 -0.653036 -5150.000000 -0.005150
3.447968 -677496.000000 -0.677496 -7214.000000 -0.007214
3.365529 -695404.000000 -0.695404 -3654.000000 -0.003654
3.285061 -715836.000000 -0.715836 -2328.000000 -0.002328
3.206516 -739216.000000 -0.739216 2908.000000 0.002908
3.129850 -773108.000000 -0.773108 -7726.000000 -0.007726
3.055017 -795424.000000 -0.795424 -3350.000000 -0.003350
2.981973 -824688.000000 -0.824688 3588.000000 0.003588
2.910675 -854384.000000 -0.854384 1378.000000 0.001378
2.841083 -888280.000000 -0.888280 2564.000000 0.002564
2.773153 -921268.000000 -0.921268 -1324.000000 -0.001324
2.706849 -960692.000000 -0.960692 -6546.000000 -0.006546
2.642129 -999964.000000 -0.999964 -2038.000000 -0.002038
2.578957 -1041792.000000 -1.041792 -968.000000 -0.000968
2.517295 -1092364.000000 -1.092364 -7860.000000 -0.007860
2.457108 -1143580.000000 -1.143580 -10356.000000 -0.010356
2.398360 -1198392.000000 -1.198392 -15720.000000 -0.015720
2.341016 -1256508.000000 -1.256508 -18566.000000 -0.018566
2.285044 -1323732.000000 -1.323732 -17880.000000 -0.017880
2.230409 -1387628.000000 -1.387628 -20948.000000 -0.020948
2.177081 -1450724.000000 -1.450724 -31292.000000 -0.031292
2.125028 -1516384.000000 -1.516384 -33326.000000 -0.033326
2.074220 -1571888.000000 -1.571888 -32348.000000 -0.032348
2.024626 -1619488.000000 -1.619488 -32348.000000 -0.032348
1.976218 -1664848.000000 -1.664848 -38342.000000 -0.038342
1.928968 -1700660.000000 -1.700660 -47488.000000 -0.047488
1.882847 -1730800.000000 -1.730800 -49902.000000 -0.049902
1.837829 -1761692.000000 -1.761692 -54088.000000 -0.054088
1.793888 -1787368.000000 -1.787368 -58482.000000 -0.058482
1.750996 -1810340.000000 -1.810340 -66192.000000 -0.066192
1.709131 -1829524.000000 -1.829524 -72974.000000 -0.072974
1.668267 -1847940.000000 -1.847940 -76604.000000 -0.076604
1.628379 -1862020.000000 -1.862020 -85640.000000 -0.085640
1.589445 -1877364.000000 -1.877364 -93902.000000 -0.093902
1.551442 -1889740.000000 -1.889740 -100918.000000 -0.100918
1.514348 -1900056.000000 -1.900056 -105480.000000 -0.105480
1.478141 -1910348.000000 -1.910348 -115150.000000 -0.115150
1.442799 -1919716.000000 -1.919716 -118006.000000 -0.118006
1.408303 -1927248.000000 -1.927248 -125012.000000 -0.125012
1.374631 -1934908.000000 -1.934908 -131762.000000 -0.131762
1.341764 -1941584.000000 -1.941584 -137012.000000 -0.137012
1.309683 -1948656.000000 -1.948656 -141958.000000 -0.141958
1.278369 -1952832.000000 -1.952832 -144500.000000 -0.144500
1.247804 -1956624.000000 -1.956624 -144974.000000 -0.144974
1.217969 -1960596.000000 -1.960596 -143646.000000 -0.143646
1.188848 -1964344.000000 -1.964344 -145160.000000 -0.145160
1.160424 -1967720.000000 -1.967720 -149716.000000 -0.149716
1.132679 -1970044.000000 -1.970044 -155924.000000 -0.155924
1.105597 -1972484.000000 -1.972484 -162924.000000 -0.162924
1.079162 -1974472.000000 -1.974472 -168696.000000 -0.168696
1.053360 -1976936.000000 -1.976936 -172514.000000 -0.172514
1.028175 -1979176.000000 -1.979176 -175568.000000 -0.175568
1.003592 -1980844.000000 -1.980844 -181432.000000 -0.181432
0.979596 -1981888.000000 -1.981888 -185906.000000 -0.185906
0.956174 -1983336.000000 -1.983336 -189614.000000 -0.189614
0.933313 -1984940.000000 -1.984940 -190926.000000 -0.190926
0.910998 -1985980.000000 -1.985980 -190344.000000 -0.190344
0.889216 -1986760.000000 -1.986760 -188540.000000 -0.188540
0.867955 -1987384.000000 -1.987384 -186868.000000 -0.186868
0.847203 -1988028.000000 -1.988028 -183580.000000 -0.183580
0.826947 -1988620.000000 -1.988620 -178274.000000 -0.178274
0.807175 -1989052.000000 -1.989052 -170656.000000 -0.170656
0.787876 -1989600.000000 -1.989600 -160272.000000 -0.160272
0.769038 -1989968.000000 -1.989968 -148348.000000 -0.148348
0.750651 -1990488.000000 -1.990488 -133794.000000 -0.133794
0.732703 -1990856.000000 -1.990856 -117410.000000 -0.117410
0.715184 -1991144.000000 -1.991144 -99466.000000 -0.099466
0.698085 -1991576.000000 -1.991576 -79674.000000 -0.079674
0.681394 -1991960.000000 -1.991960 -59676.000000 -0.059676
0.665102 -1992364.000000 -1.992364 -39226.000000 -0.039226
0.649200 -1992716.000000 -1.992716 -17922.000000 -0.017922
0.633678 -1992952.000000 -1.992952 3630.000000 0.003630
0.618527 -1993156.000000 -1.993156 26300.000000 0.026300
0.603738 -1993340.000000 -1.993340 49480.000000 0.049480
0.589303 -1993632.000000 -1.993632 72104.000000 0.072104
0.575213 -1993860.000000 -1.993860 93744.000000 0.093744
0.561460 -1993992.000000 -1.993992 113368.000000 0.113368
0.548036 -1994208.000000 -1.994208 130484.000000 0.130484
0.534932 -1994432.000000 -1.994432 146098.000000 0.146098
0.522142 -1994556.000000 -1.994556 162692.000000 0.162692
0.509658 -1994612.000000 -1.994612 179694.000000 0.179694
